time,x,theta,control_input
0,-0.00131009,19.9086
0.01,-0.00516371,19.6402
0.02,-0.0114513,19.203
0.03,-0.0200701,18.6043
0.04,-0.0309232,17.8504
0.05,-0.0438687,16.951
0.06,-0.0579962,15.9792
0.07,-0.0719855,15.042
0.08,-0.0852654,14.1856
0.09,-0.0979135,13.4025
0.1,-0.11019,12.67
0.11,-0.122253,11.9739
0.12,-0.134131,11.3108
0.13,-0.145796,10.6822
0.14,-0.15723,10.0887
0.15,-0.168441,9.52895
0.16,-0.179447,9.00044
0.17,-0.190266,8.50096
0.18,-0.200912,8.02872
0.19,-0.211392,7.58229
0.2,-0.221716,7.16037
0.21,-0.231891,6.76163
0.22,-0.241925,6.38481
0.23,-0.251827,6.02866
0.24,-0.261604,5.69203
0.25,-0.271264,5.37386
0.26,-0.280811,5.07313
0.27,-0.290253,4.78889
0.28,-0.299596,4.52022
0.29,-0.308844,4.26629
0.3,-0.318002,4.02626
0.31,-0.327077,3.79939
0.32,-0.336071,3.58495
0.33,-0.344991,3.38226
0.34,-0.353838,3.19067
0.35,-0.362618,3.00958
0.36,-0.371334,2.8384
0.37,-0.37999,2.67661
0.38,-0.388588,2.52367
0.39,-0.397131,2.37912
0.4,-0.405623,2.24248
0.41,-0.414067,2.11332
0.42,-0.422464,1.99124
0.43,-0.430818,1.87584
0.44,-0.43913,1.76677
0.45,-0.447403,1.66367
0.46,-0.455638,1.56621
0.47,-0.463838,1.4741
0.48,-0.472005,1.38703
0.49,-0.48014,1.30473
0.5,-0.488245,1.22693
0.51,-0.496321,1.1534
0.52,-0.504371,1.0839
0.53,-0.512394,1.0182
0.54,-0.520393,0.956105
0.55,-0.528369,0.897409
0.56,-0.536322,0.841929
0.57,-0.544255,0.789488
0.58,-0.552168,0.73992
0.59,-0.560062,0.693069
0.6,-0.567938,0.648784
0.61,-0.575796,0.606927
0.62,-0.583639,0.567362
0.63,-0.591466,0.529967
0.64,-0.599278,0.49462
0.65,-0.607076,0.461212
0.66,-0.614861,0.429634
0.67,-0.622633,0.399787
0.68,-0.630392,0.371577
0.69,-0.63814,0.344913
0.7,-0.645877,0.319712
0.71,-0.653604,0.295892
0.72,-0.66132,0.273379
0.73,-0.669026,0.2521
0.74,-0.676724,0.231989
0.75,-0.684412,0.212981
0.76,-0.692092,0.195016
0.77,-0.699764,0.178037
0.78,-0.707428,0.161989
0.79,-0.715084,0.146823
0.8,-0.722734,0.132489
0.81,-0.730376,0.118942
0.82,-0.738012,0.10614
0.83,-0.745641,0.0940402
0.84,-0.753265,0.0826054
0.85,-0.760882,0.0717991
0.86,-0.768494,0.0615867
0.87,-0.7761,0.0519357
0.88,-0.783701,0.0428155
0.89,-0.791297,0.0341969
0.9,-0.798888,0.0260525
0.91,-0.806474,0.0183564
0.92,-0.814056,0.0110839
0.93,-0.821633,0.00421203
0.94,-0.829206,-0.00228131
0.95,-0.836774,-0.00841678
0.96,-0.844339,-0.014214
0.97,-0.851899,-0.0196914
0.98,-0.859456,-0.0248666
0.99,-0.867009,-0.0297561
1,-0.874558,-0.0343756
1.01,-0.882104,-0.0387397
1.02,-0.889646,-0.0428626
1.03,-0.897185,-0.0467574
1.04,-0.904721,-0.0504365
1.05,-0.912253,-0.0539119
1.06,-0.919782,-0.0571946
1.07,-0.927308,-0.0602952
1.08,-0.934832,-0.0632237
1.09,-0.942352,-0.0659894
1.1,-0.949869,-0.0686014
1.11,-0.957383,-0.071068
1.12,-0.964895,-0.0733972
1.13,-0.972403,-0.0755965
1.14,-0.979909,-0.0776729
1.15,-0.987413,-0.0796334
1.16,-0.994913,-0.0814841
1.17,-1.00241,-0.0832311
1.18,-1.00991,-0.0848801
1.19,-1.0174,-0.0864364
1.2,-1.02489,-0.0879052
1.21,-1.03238,-0.0892911
1.22,-1.03986,-0.0905988
1.23,-1.04735,-0.0918326
1.24,-1.05483,-0.0929964
1.25,-1.06231,-0.0940941
1.26,-1.06978,-0.0951293
1.27,-1.07726,-0.0961055
1.28,-1.08473,-0.0970259
1.29,-1.0922,-0.0978935
1.3,-1.09966,-0.0987112
1.31,-1.10713,-0.0994818
1.32,-1.11459,-0.100208
1.33,-1.12205,-0.100892
1.34,-1.12951,-0.101536
1.35,-1.13697,-0.102142
1.36,-1.14442,-0.102713
1.37,-1.15187,-0.10325
1.38,-1.15932,-0.103756
1.39,-1.16677,-0.104231
1.4,-1.17421,-0.104678
1.41,-1.18166,-0.105098
1.42,-1.1891,-0.105493
1.43,-1.19654,-0.105864
1.44,-1.20397,-0.106212
1.45,-1.21141,-0.106539
1.46,-1.21884,-0.106845
1.47,-1.22627,-0.107133
1.48,-1.2337,-0.107402
1.49,-1.24113,-0.107654
1.5,-1.24855,-0.10789
1.51,-1.25597,-0.108111
1.52,-1.26339,-0.108317
1.53,-1.27081,-0.10851
1.54,-1.27823,-0.108689
1.55,-1.28564,-0.108857
1.56,-1.29306,-0.109013
1.57,-1.30047,-0.109158
1.58,-1.30788,-0.109293
1.59,-1.31528,-0.109418
1.6,-1.32269,-0.109534
1.61,-1.33009,-0.109641
1.62,-1.33749,-0.10974
1.63,-1.34489,-0.109831
1.64,-1.35229,-0.109915
1.65,-1.35968,-0.109992
1.66,-1.36707,-0.110062
1.67,-1.37446,-0.110126
1.68,-1.38185,-0.110184
1.69,-1.38924,-0.110237
1.7,-1.39663,-0.110284
1.71,-1.40401,-0.110327
1.72,-1.41139,-0.110365
1.73,-1.41877,-0.110398
1.74,-1.42615,-0.110428
1.75,-1.43352,-0.110453
1.76,-1.44089,-0.110475
1.77,-1.44827,-0.110493
1.78,-1.45564,-0.110508
1.79,-1.463,-0.110519
1.8,-1.47037,-0.110528
1.81,-1.47773,-0.110534
1.82,-1.48509,-0.110537
1.83,-1.49245,-0.110537
1.84,-1.49981,-0.110536
1.85,-1.50717,-0.110532
1.86,-1.51452,-0.110526
1.87,-1.52188,-0.110518
1.88,-1.52923,-0.110508
1.89,-1.53657,-0.110496
1.9,-1.54392,-0.110483
1.91,-1.55126,-0.110468
1.92,-1.55861,-0.110451
1.93,-1.56595,-0.110433
1.94,-1.57329,-0.110414
1.95,-1.58062,-0.110393
1.96,-1.58796,-0.110372
1.97,-1.59529,-0.110349
1.98,-1.60262,-0.110325
1.99,-1.60995,-0.1103
2,-1.61728,-0.110274
2.01,-1.62461,-0.110247
2.02,-1.63193,-0.11022
2.03,-1.63925,-0.110191
2.04,-1.64657,-0.110162
2.05,-1.65389,-0.110132
2.06,-1.66121,-0.110101
2.07,-1.66852,-0.11007
2.08,-1.67583,-0.110038
2.09,-1.68314,-0.110006
2.1,-1.69045,-0.109973
2.11,-1.69776,-0.10994
2.12,-1.70506,-0.109906
2.13,-1.71237,-0.109871
2.14,-1.71967,-0.109836
2.15,-1.72697,-0.109801
2.16,-1.73426,-0.109766
2.17,-1.74156,-0.10973
2.18,-1.74885,-0.109694
2.19,-1.75614,-0.109657
2.2,-1.76343,-0.10962
2.21,-1.77072,-0.109583
2.22,-1.77801,-0.109545
2.23,-1.78529,-0.109508
2.24,-1.79257,-0.10947
2.25,-1.79985,-0.109432
2.26,-1.80713,-0.109393
2.27,-1.81441,-0.109355
2.28,-1.82168,-0.109316
2.29,-1.82896,-0.109277
2.3,-1.83623,-0.109238
2.31,-1.8435,-0.109199
2.32,-1.85076,-0.10916
2.33,-1.85803,-0.10912
2.34,-1.86529,-0.10908
2.35,-1.87256,-0.109041
2.36,-1.87981,-0.109001
2.37,-1.88707,-0.108961
2.38,-1.89433,-0.108921
2.39,-1.90158,-0.108881
2.4,-1.90884,-0.108841
2.41,-1.91609,-0.1088
2.42,-1.92333,-0.10876
2.43,-1.93058,-0.108719
2.44,-1.93783,-0.108679
2.45,-1.94507,-0.108638
2.46,-1.95231,-0.108598
2.47,-1.95955,-0.108557
2.48,-1.96679,-0.108516
2.49,-1.97402,-0.108475
2.5,-1.98126,-0.108435
2.51,-1.98849,-0.108394
2.52,-1.99572,-0.108353
2.53,-2.00295,-0.108312
2.54,-2.01017,-0.108271
2.55,-2.0174,-0.10823
2.56,-2.02462,-0.108189
2.57,-2.03184,-0.108148
2.58,-2.03906,-0.108107
2.59,-2.04628,-0.108066
2.6,-2.05349,-0.108025
2.61,-2.06071,-0.107984
2.62,-2.06792,-0.107942
2.63,-2.07513,-0.107901
2.64,-2.08233,-0.10786
2.65,-2.08954,-0.107819
2.66,-2.09674,-0.107778
2.67,-2.10395,-0.107737
2.68,-2.11115,-0.107695
2.69,-2.11835,-0.107654
2.7,-2.12554,-0.107613
2.71,-2.13274,-0.107572
2.72,-2.13993,-0.107531
2.73,-2.14712,-0.10749
2.74,-2.15431,-0.107448
2.75,-2.1615,-0.107407
2.76,-2.16868,-0.107366
2.77,-2.17587,-0.107325
2.78,-2.18305,-0.107284
2.79,-2.19023,-0.107243
2.8,-2.19741,-0.107201
2.81,-2.20459,-0.10716
2.82,-2.21176,-0.107119
2.83,-2.21893,-0.107078
2.84,-2.2261,-0.107037
2.85,-2.23327,-0.106996
2.86,-2.24044,-0.106955
2.87,-2.24761,-0.106913
2.88,-2.25477,-0.106872
2.89,-2.26193,-0.106831
2.9,-2.26909,-0.10679
2.91,-2.27625,-0.106749
2.92,-2.28341,-0.106708
2.93,-2.29056,-0.106667
2.94,-2.29771,-0.106626
2.95,-2.30487,-0.106585
2.96,-2.31201,-0.106544
2.97,-2.31916,-0.106503
2.98,-2.32631,-0.106462
2.99,-2.33345,-0.106421
3,-2.34059,-0.10638
3.01,-2.34773,-0.106339
3.02,-2.35487,-0.106298
3.03,-2.36201,-0.106257
3.04,-2.36914,-0.106216
3.05,-2.37628,-0.106175
3.06,-2.38341,-0.106134
3.07,-2.39054,-0.106093
3.08,-2.39766,-0.106053
3.09,-2.40479,-0.106012
3.1,-2.41191,-0.105971
3.11,-2.41903,-0.10593
3.12,-2.42615,-0.105889
3.13,-2.43327,-0.105849
3.14,-2.44039,-0.105808
3.15,-2.4475,-0.105767
3.16,-2.45462,-0.105726
3.17,-2.46173,-0.105685
3.18,-2.46884,-0.105645
3.19,-2.47594,-0.105604
3.2,-2.48305,-0.105563
3.21,-2.49015,-0.105523
3.22,-2.49726,-0.105482
3.23,-2.50436,-0.105441
3.24,-2.51145,-0.105401
3.25,-2.51855,-0.10536
3.26,-2.52565,-0.105319
3.27,-2.53274,-0.105279
3.28,-2.53983,-0.105238
3.29,-2.54692,-0.105198
3.3,-2.55401,-0.105157
3.31,-2.56109,-0.105117
3.32,-2.56818,-0.105076
3.33,-2.57526,-0.105036
3.34,-2.58234,-0.104995
3.35,-2.58942,-0.104955
3.36,-2.59649,-0.104914
3.37,-2.60357,-0.104874
3.38,-2.61064,-0.104833
3.39,-2.61771,-0.104793
3.4,-2.62478,-0.104753
3.41,-2.63185,-0.104712
3.42,-2.63892,-0.104672
3.43,-2.64598,-0.104631
3.44,-2.65304,-0.104591
3.45,-2.6601,-0.104551
3.46,-2.66716,-0.104511
3.47,-2.67422,-0.10447
3.48,-2.68128,-0.10443
3.49,-2.68833,-0.10439
3.5,-2.69538,-0.104349
3.51,-2.70243,-0.104309
3.52,-2.70948,-0.104269
3.53,-2.71653,-0.104229
3.54,-2.72357,-0.104189
3.55,-2.73061,-0.104148
3.56,-2.73765,-0.104108
3.57,-2.74469,-0.104068
3.58,-2.75173,-0.104028
3.59,-2.75877,-0.103988
3.6,-2.7658,-0.103948
3.61,-2.77283,-0.103908
3.62,-2.77986,-0.103868
3.63,-2.78689,-0.103828
3.64,-2.79392,-0.103788
3.65,-2.80094,-0.103748
3.66,-2.80797,-0.103708
3.67,-2.81499,-0.103668
3.68,-2.82201,-0.103628
3.69,-2.82903,-0.103588
3.7,-2.83604,-0.103548
3.71,-2.84306,-0.103508
3.72,-2.85007,-0.103468
3.73,-2.85708,-0.103428
3.74,-2.86409,-0.103388
3.75,-2.8711,-0.103348
3.76,-2.8781,-0.103309
3.77,-2.88511,-0.103269
3.78,-2.89211,-0.103229
3.79,-2.89911,-0.103189
3.8,-2.90611,-0.103149
3.81,-2.9131,-0.10311
3.82,-2.9201,-0.10307
3.83,-2.92709,-0.10303
3.84,-2.93408,-0.10299
3.85,-2.94107,-0.102951
3.86,-2.94806,-0.102911
3.87,-2.95505,-0.102871
3.88,-2.96203,-0.102832
3.89,-2.96901,-0.102792
3.9,-2.976,-0.102752
3.91,-2.98297,-0.102713
3.92,-2.98995,-0.102673
3.93,-2.99693,-0.102634
3.94,-3.0039,-0.102594
3.95,-3.01087,-0.102554
3.96,-3.01784,-0.102515
3.97,-3.02481,-0.102475
3.98,-3.03178,-0.102436
3.99,-3.03874,-0.102396
4,-3.04571,-0.102357
4.01,-3.05267,-0.102317
4.02,-3.05963,-0.102278
4.03,-3.06659,-0.102239
4.04,-3.07354,-0.102199
4.05,-3.0805,-0.10216
4.06,-3.08745,-0.10212
4.07,-3.0944,-0.102081
4.08,-3.10135,-0.102042
4.09,-3.1083,-0.102002
4.1,-3.11525,-0.101963
4.11,-3.12219,-0.101924
4.12,-3.12913,-0.101884
4.13,-3.13607,-0.101845
4.14,-3.14301,-0.101806
4.15,-3.14995,-0.101767
4.16,-3.15688,-0.101727
4.17,-3.16382,-0.101688
4.18,-3.17075,-0.101649
4.19,-3.17768,-0.10161
4.2,-3.18461,-0.101571
4.21,-3.19153,-0.101531
4.22,-3.19846,-0.101492
4.23,-3.20538,-0.101453
4.24,-3.2123,-0.101414
4.25,-3.21922,-0.101375
4.26,-3.22614,-0.101336
4.27,-3.23306,-0.101297
4.28,-3.23997,-0.101258
4.29,-3.24689,-0.101219
4.3,-3.2538,-0.10118
4.31,-3.26071,-0.101141
4.32,-3.26761,-0.101102
4.33,-3.27452,-0.101063
4.34,-3.28142,-0.101024
4.35,-3.28833,-0.100985
4.36,-3.29523,-0.100946
4.37,-3.30213,-0.100907
4.38,-3.30902,-0.100868
4.39,-3.31592,-0.100829
4.4,-3.32281,-0.10079
4.41,-3.32971,-0.100751
4.42,-3.3366,-0.100713
4.43,-3.34349,-0.100674
4.44,-3.35037,-0.100635
4.45,-3.35726,-0.100596
4.46,-3.36414,-0.100557
4.47,-3.37102,-0.100519
4.48,-3.3779,-0.10048
4.49,-3.38478,-0.100441
4.5,-3.39166,-0.100402
4.51,-3.39853,-0.100364
4.52,-3.40541,-0.100325
4.53,-3.41228,-0.100286
4.54,-3.41915,-0.100248
4.55,-3.42602,-0.100209
4.56,-3.43288,-0.10017
4.57,-3.43975,-0.100132
4.58,-3.44661,-0.100093
4.59,-3.45347,-0.100054
4.6,-3.46033,-0.100016
4.61,-3.46719,-0.0999773
4.62,-3.47404,-0.0999388
4.63,-3.4809,-0.0999003
4.64,-3.48775,-0.0998617
4.65,-3.4946,-0.0998232
4.66,-3.50145,-0.0997848
4.67,-3.5083,-0.0997463
4.68,-3.51514,-0.0997078
4.69,-3.52199,-0.0996694
4.7,-3.52883,-0.099631
4.71,-3.53567,-0.0995926
4.72,-3.54251,-0.0995542
4.73,-3.54935,-0.0995158
4.74,-3.55618,-0.0994774
4.75,-3.56302,-0.0994391
4.76,-3.56985,-0.0994007
4.77,-3.57668,-0.0993624
4.78,-3.58351,-0.0993241
4.79,-3.59034,-0.0992858
4.8,-3.59716,-0.0992475
4.81,-3.60399,-0.0992093
4.82,-3.61081,-0.099171
4.83,-3.61763,-0.0991328
4.84,-3.62445,-0.0990946
4.85,-3.63126,-0.0990564
4.86,-3.63808,-0.0990182
4.87,-3.64489,-0.09898
4.88,-3.6517,-0.0989418
4.89,-3.65851,-0.0989037
4.9,-3.66532,-0.0988656
4.91,-3.67213,-0.0988274
4.92,-3.67893,-0.0987893
4.93,-3.68574,-0.0987512
4.94,-3.69254,-0.0987132
4.95,-3.69934,-0.0986751
4.96,-3.70614,-0.0986371
4.97,-3.71293,-0.098599
4.98,-3.71973,-0.098561
4.99,-3.72652,-0.098523
5,-3.73331,-0.0984851
5.01,-3.7401,-0.0984471
5.02,-3.74689,-0.0984091
5.03,-3.75368,-0.0983712
5.04,-3.76046,-0.0983333
5.05,-3.76725,-0.0982954
5.06,-3.77403,-0.0982575
5.07,-3.78081,-0.0982196
5.08,-3.78759,-0.0981817
5.09,-3.79436,-0.0981439
5.1,-3.80114,-0.098106
5.11,-3.80791,-0.0980682
5.12,-3.81468,-0.0980304
5.13,-3.82145,-0.0979926
5.14,-3.82822,-0.0979548
5.15,-3.83499,-0.097917
5.16,-3.84175,-0.0978793
5.17,-3.84851,-0.0978416
5.18,-3.85528,-0.0978038
5.19,-3.86204,-0.0977661
5.2,-3.86879,-0.0977284
5.21,-3.87555,-0.0976908
5.22,-3.8823,-0.0976531
5.23,-3.88906,-0.0976154
5.24,-3.89581,-0.0975778
5.25,-3.90256,-0.0975402
5.26,-3.90931,-0.0975026
5.27,-3.91605,-0.097465
5.28,-3.9228,-0.0974274
5.29,-3.92954,-0.0973899
5.3,-3.93628,-0.0973523
5.31,-3.94302,-0.0973148
5.32,-3.94976,-0.0972773
5.33,-3.9565,-0.0972398
5.34,-3.96323,-0.0972023
5.35,-3.96996,-0.0971648
5.36,-3.9767,-0.0971273
5.37,-3.98343,-0.0970899
5.38,-3.99015,-0.0970525
5.39,-3.99688,-0.097015
5.4,-4.0036,-0.0969776
5.41,-4.01033,-0.0969403
5.42,-4.01705,-0.0969029
5.43,-4.02377,-0.0968655
5.44,-4.03049,-0.0968282
5.45,-4.0372,-0.0967908
5.46,-4.04392,-0.0967535
5.47,-4.05063,-0.0967162
5.48,-4.05734,-0.0966789
5.49,-4.06405,-0.0966417
5.5,-4.07076,-0.0966044
5.51,-4.07747,-0.0965672
5.52,-4.08417,-0.0965299
5.53,-4.09088,-0.0964927
5.54,-4.09758,-0.0964555
5.55,-4.10428,-0.0964183
5.56,-4.11097,-0.0963812
5.57,-4.11767,-0.096344
5.58,-4.12437,-0.0963069
5.59,-4.13106,-0.0962697
5.6,-4.13775,-0.0962326
5.61,-4.14444,-0.0961955
5.62,-4.15113,-0.0961584
5.63,-4.15782,-0.0961213
5.64,-4.1645,-0.0960843
5.65,-4.17119,-0.0960472
5.66,-4.17787,-0.0960102
5.67,-4.18455,-0.0959732
5.68,-4.19123,-0.0959362
5.69,-4.1979,-0.0958992
5.7,-4.20458,-0.0958622
5.71,-4.21125,-0.0958253
5.72,-4.21792,-0.0957883
5.73,-4.22459,-0.0957514
5.74,-4.23126,-0.0957145
5.75,-4.23793,-0.0956776
5.76,-4.24459,-0.0956407
5.77,-4.25126,-0.0956038
5.78,-4.25792,-0.095567
5.79,-4.26458,-0.0955301
5.8,-4.27124,-0.0954933
5.81,-4.2779,-0.0954565
5.82,-4.28455,-0.0954197
5.83,-4.29121,-0.0953829
5.84,-4.29786,-0.0953461
5.85,-4.30451,-0.0953094
5.86,-4.31116,-0.0952726
5.87,-4.31781,-0.0952359
5.88,-4.32445,-0.0951992
5.89,-4.3311,-0.0951625
5.9,-4.33774,-0.0951258
5.91,-4.34438,-0.0950891
5.92,-4.35102,-0.0950524
5.93,-4.35766,-0.0950158
5.94,-4.36429,-0.0949792
5.95,-4.37093,-0.0949425
5.96,-4.37756,-0.0949059
5.97,-4.38419,-0.0948694
5.98,-4.39082,-0.0948328
5.99,-4.39745,-0.0947962
6,-4.40408,-0.0947597
6.01,-4.4107,-0.0947231
6.02,-4.41732,-0.0946866
6.03,-4.42395,-0.0946501
6.04,-4.43056,-0.0946136
6.05,-4.43718,-0.0945771
6.06,-4.4438,-0.0945407
6.07,-4.45041,-0.0945042
6.08,-4.45703,-0.0944678
6.09,-4.46364,-0.0944314
6.1,-4.47025,-0.094395
6.11,-4.47686,-0.0943586
6.12,-4.48347,-0.0943222
6.13,-4.49007,-0.0942858
6.14,-4.49667,-0.0942495
6.15,-4.50328,-0.0942131
6.16,-4.50988,-0.0941768
6.17,-4.51648,-0.0941405
6.18,-4.52307,-0.0941042
6.19,-4.52967,-0.0940679
6.2,-4.53626,-0.0940317
6.21,-4.54286,-0.0939954
6.22,-4.54945,-0.0939592
6.23,-4.55604,-0.093923
6.24,-4.56262,-0.0938867
6.25,-4.56921,-0.0938506
6.26,-4.57579,-0.0938144
6.27,-4.58238,-0.0937782
6.28,-4.58896,-0.093742
6.29,-4.59554,-0.0937059
6.3,-4.60212,-0.0936698
6.31,-4.60869,-0.0936337
6.32,-4.61527,-0.0935976
6.33,-4.62184,-0.0935615
6.34,-4.62841,-0.0935254
6.35,-4.63498,-0.0934894
6.36,-4.64155,-0.0934533
6.37,-4.64812,-0.0934173
6.38,-4.65468,-0.0933813
6.39,-4.66125,-0.0933453
6.4,-4.66781,-0.0933093
6.41,-4.67437,-0.0932733
6.42,-4.68093,-0.0932373
6.43,-4.68748,-0.0932014
6.44,-4.69404,-0.0931655
6.45,-4.70059,-0.0931295
6.46,-4.70715,-0.0930936
6.47,-4.7137,-0.0930577
6.48,-4.72025,-0.0930219
6.49,-4.72679,-0.092986
6.5,-4.73334,-0.0929502
6.51,-4.73988,-0.0929143
6.52,-4.74643,-0.0928785
6.53,-4.75297,-0.0928427
6.54,-4.75951,-0.0928069
6.55,-4.76605,-0.0927711
6.56,-4.77258,-0.0927353
6.57,-4.77912,-0.0926996
6.58,-4.78565,-0.0926639
6.59,-4.79218,-0.0926281
6.6,-4.79871,-0.0925924
6.61,-4.80524,-0.0925567
6.62,-4.81177,-0.092521
6.63,-4.81829,-0.0924854
6.64,-4.82482,-0.0924497
6.65,-4.83134,-0.0924141
6.66,-4.83786,-0.0923784
6.67,-4.84438,-0.0923428
6.68,-4.8509,-0.0923072
6.69,-4.85741,-0.0922716
6.7,-4.86393,-0.0922361
6.71,-4.87044,-0.0922005
6.72,-4.87695,-0.092165
6.73,-4.88346,-0.0921294
6.74,-4.88997,-0.0920939
6.75,-4.89648,-0.0920584
6.76,-4.90298,-0.0920229
6.77,-4.90948,-0.0919874
6.78,-4.91599,-0.091952
6.79,-4.92249,-0.0919165
6.8,-4.92899,-0.0918811
6.81,-4.93548,-0.0918457
6.82,-4.94198,-0.0918102
6.83,-4.94847,-0.0917748
6.84,-4.95496,-0.0917395
6.85,-4.96145,-0.0917041
6.86,-4.96794,-0.0916687
6.87,-4.97443,-0.0916334
6.88,-4.98092,-0.0915981
6.89,-4.9874,-0.0915628
6.9,-4.99389,-0.0915275
6.91,-5.00037,-0.0914922
6.92,-5.00685,-0.0914569
6.93,-5.01332,-0.0914216
6.94,-5.0198,-0.0913864
6.95,-5.02628,-0.0913512
6.96,-5.03275,-0.0913159
6.97,-5.03922,-0.0912807
6.98,-5.04569,-0.0912455
6.99,-5.05216,-0.0912104
7,-5.05863,-0.0911752
7.01,-5.06509,-0.09114
7.02,-5.07156,-0.0911049
7.03,-5.07802,-0.0910698
7.04,-5.08448,-0.0910347
7.05,-5.09094,-0.0909996
7.06,-5.0974,-0.0909645
7.07,-5.10386,-0.0909294
7.08,-5.11031,-0.0908944
7.09,-5.11676,-0.0908593
7.1,-5.12322,-0.0908243
7.11,-5.12967,-0.0907893
7.12,-5.13612,-0.0907543
7.13,-5.14256,-0.0907193
7.14,-5.14901,-0.0906843
7.15,-5.15545,-0.0906494
7.16,-5.16189,-0.0906144
7.17,-5.16834,-0.0905795
7.18,-5.17477,-0.0905445
7.19,-5.18121,-0.0905096
7.2,-5.18765,-0.0904747
7.21,-5.19408,-0.0904399
7.22,-5.20052,-0.090405
7.23,-5.20695,-0.0903701
7.24,-5.21338,-0.0903353
7.25,-5.21981,-0.0903005
7.26,-5.22623,-0.0902657
7.27,-5.23266,-0.0902309
7.28,-5.23908,-0.0901961
7.29,-5.24551,-0.0901613
7.3,-5.25193,-0.0901265
7.31,-5.25835,-0.0900918
7.32,-5.26476,-0.0900571
7.33,-5.27118,-0.0900223
7.34,-5.27759,-0.0899876
7.35,-5.28401,-0.0899529
7.36,-5.29042,-0.0899183
7.37,-5.29683,-0.0898836
7.38,-5.30324,-0.0898489
7.39,-5.30964,-0.0898143
7.4,-5.31605,-0.0897797
7.41,-5.32245,-0.0897451
7.42,-5.32886,-0.0897105
7.43,-5.33526,-0.0896759
7.44,-5.34166,-0.0896413
7.45,-5.34805,-0.0896067
7.46,-5.35445,-0.0895722
7.47,-5.36084,-0.0895377
7.48,-5.36724,-0.0895031
7.49,-5.37363,-0.0894686
7.5,-5.38002,-0.0894341
7.51,-5.38641,-0.0893997
7.52,-5.3928,-0.0893652
7.53,-5.39918,-0.0893307
7.54,-5.40556,-0.0892963
7.55,-5.41195,-0.0892619
7.56,-5.41833,-0.0892275
7.57,-5.42471,-0.0891931
7.58,-5.43109,-0.0891587
7.59,-5.43746,-0.0891243
7.6,-5.44384,-0.0890899
7.61,-5.45021,-0.0890556
7.62,-5.45658,-0.0890213
7.63,-5.46295,-0.0889869
7.64,-5.46932,-0.0889526
7.65,-5.47569,-0.0889183
7.66,-5.48205,-0.088884
7.67,-5.48842,-0.0888498
7.68,-5.49478,-0.0888155
7.69,-5.50114,-0.0887813
7.7,-5.5075,-0.0887471
7.71,-5.51386,-0.0887128
7.72,-5.52022,-0.0886786
7.73,-5.52657,-0.0886445
7.74,-5.53292,-0.0886103
7.75,-5.53928,-0.0885761
7.76,-5.54563,-0.088542
7.77,-5.55198,-0.0885078
7.78,-5.55832,-0.0884737
7.79,-5.56467,-0.0884396
7.8,-5.57101,-0.0884055
7.81,-5.57736,-0.0883714
7.82,-5.5837,-0.0883373
7.83,-5.59004,-0.0883033
7.84,-5.59638,-0.0882692
7.85,-5.60271,-0.0882352
7.86,-5.60905,-0.0882012
7.87,-5.61538,-0.0881672
7.88,-5.62172,-0.0881332
7.89,-5.62805,-0.0880992
7.9,-5.63438,-0.0880653
7.91,-5.6407,-0.0880313
7.92,-5.64703,-0.0879974
7.93,-5.65335,-0.0879634
7.94,-5.65968,-0.0879295
7.95,-5.666,-0.0878956
7.96,-5.67232,-0.0878617
7.97,-5.67864,-0.0878279
7.98,-5.68496,-0.087794
7.99,-5.69127,-0.0877602
8,-5.69759,-0.0877263
8.01,-5.7039,-0.0876925
8.02,-5.71021,-0.0876587
8.03,-5.71652,-0.0876249
8.04,-5.72283,-0.0875911
8.05,-5.72914,-0.0875573
8.06,-5.73544,-0.0875236
8.07,-5.74174,-0.0874898
8.08,-5.74805,-0.0874561
8.09,-5.75435,-0.0874224
8.1,-5.76065,-0.0873887
8.11,-5.76695,-0.087355
8.12,-5.77324,-0.0873213
8.13,-5.77954,-0.0872877
8.14,-5.78583,-0.087254
8.15,-5.79212,-0.0872204
8.16,-5.79841,-0.0871867
8.17,-5.8047,-0.0871531
8.18,-5.81099,-0.0871195
8.19,-5.81727,-0.0870859
8.2,-5.82356,-0.0870524
8.21,-5.82984,-0.0870188
8.22,-5.83612,-0.0869852
8.23,-5.8424,-0.0869517
8.24,-5.84868,-0.0869182
8.25,-5.85496,-0.0868847
